"# Channel 1"
"# Trace 2"
Frequency, Formatted Data, Formatted Data
+1.00000000000E+009, +1.38402358272E+001, +0.00000000000E+000
+1.00200000000E+009, +1.38228598702E+001, +0.00000000000E+000
+1.00400000000E+009, +1.38892724586E+001, +0.00000000000E+000
+1.00600000000E+009, +1.39946333535E+001, +0.00000000000E+000
+1.00800000000E+009, +1.41928702656E+001, +0.00000000000E+000
+1.01000000000E+009, +1.44505730672E+001, +0.00000000000E+000
+1.01200000000E+009, +1.48704665709E+001, +0.00000000000E+000
+1.01400000000E+009, +1.54051675650E+001, +0.00000000000E+000
+1.01600000000E+009, +1.60527134316E+001, +0.00000000000E+000
+1.01800000000E+009, +1.67992855535E+001, +0.00000000000E+000
+1.02000000000E+009, +1.78251025809E+001, +0.00000000000E+000
+1.02200000000E+009, +1.89766288464E+001, +0.00000000000E+000
+1.02400000000E+009, +2.02854809054E+001, +0.00000000000E+000
+1.02600000000E+009, +2.18005886215E+001, +0.00000000000E+000
+1.02800000000E+009, +2.38347843721E+001, +0.00000000000E+000
+1.03000000000E+009, +2.62355572839E+001, +0.00000000000E+000
+1.03200000000E+009, +2.91654598923E+001, +0.00000000000E+000
+1.03400000000E+009, +3.26196146438E+001, +0.00000000000E+000
+1.03600000000E+009, +3.63618359240E+001, +0.00000000000E+000
+1.03800000000E+009, +4.05295999506E+001, +0.00000000000E+000
+1.04000000000E+009, +4.55684242234E+001, +0.00000000000E+000
+1.04200000000E+009, +5.12956464984E+001, +0.00000000000E+000
+1.04400000000E+009, +5.78899883785E+001, +0.00000000000E+000
+1.04600000000E+009, +6.49963819344E+001, +0.00000000000E+000
+1.04800000000E+009, +7.22365722824E+001, +0.00000000000E+000
+1.05000000000E+009, +7.95534521543E+001, +0.00000000000E+000
+1.05200000000E+009, +8.64497168006E+001, +0.00000000000E+000
+1.05400000000E+009, +9.28369261093E+001, +0.00000000000E+000
+1.05600000000E+009, +9.84687179361E+001, +0.00000000000E+000
+1.05800000000E+009, +1.03111423950E+002, +0.00000000000E+000
+1.06000000000E+009, +1.07010203626E+002, +0.00000000000E+000
+1.06200000000E+009, +1.10435957748E+002, +0.00000000000E+000
+1.06400000000E+009, +1.13202185260E+002, +0.00000000000E+000
+1.06600000000E+009, +1.15632959364E+002, +0.00000000000E+000
+1.06800000000E+009, +1.18212249517E+002, +0.00000000000E+000
+1.07000000000E+009, +1.20252195271E+002, +0.00000000000E+000
+1.07200000000E+009, +1.22051105674E+002, +0.00000000000E+000
+1.07400000000E+009, +1.23627086936E+002, +0.00000000000E+000
+1.07600000000E+009, +1.24962175824E+002, +0.00000000000E+000
+1.07800000000E+009, +1.26406298769E+002, +0.00000000000E+000
+1.08000000000E+009, +1.27441775536E+002, +0.00000000000E+000
+1.08200000000E+009, +1.28150796823E+002, +0.00000000000E+000
+1.08400000000E+009, +1.28933750659E+002, +0.00000000000E+000
+1.08600000000E+009, +1.29403771413E+002, +0.00000000000E+000
+1.08800000000E+009, +1.29831656482E+002, +0.00000000000E+000
+1.09000000000E+009, +1.30361315010E+002, +0.00000000000E+000
+1.09200000000E+009, +1.30876534820E+002, +0.00000000000E+000
+1.09400000000E+009, +1.31442079417E+002, +0.00000000000E+000
+1.09600000000E+009, +1.31795196129E+002, +0.00000000000E+000
+1.09800000000E+009, +1.31923195373E+002, +0.00000000000E+000
+1.10000000000E+009, +1.32457132662E+002, +0.00000000000E+000
+1.10200000000E+009, +1.33643683825E+002, +0.00000000000E+000
+1.10400000000E+009, +1.35235419627E+002, +0.00000000000E+000
+1.10600000000E+009, +1.37916944670E+002, +0.00000000000E+000
+1.10800000000E+009, +1.42516965935E+002, +0.00000000000E+000
+1.11000000000E+009, +1.52108606759E+002, +0.00000000000E+000
+1.11200000000E+009, +1.76728204543E+002, +0.00000000000E+000
+1.11400000000E+009, -1.32663542942E+002, +0.00000000000E+000
+1.11600000000E+009, -9.72459452750E+001, +0.00000000000E+000
+1.11800000000E+009, -8.38702699534E+001, +0.00000000000E+000
+1.12000000000E+009, -7.78834680097E+001, +0.00000000000E+000
+1.12200000000E+009, -7.54460366593E+001, +0.00000000000E+000
+1.12400000000E+009, -7.40473085496E+001, +0.00000000000E+000
+1.12600000000E+009, -7.34252284728E+001, +0.00000000000E+000
+1.12800000000E+009, -7.30310630717E+001, +0.00000000000E+000
+1.13000000000E+009, -7.26948971539E+001, +0.00000000000E+000
+1.13200000000E+009, -7.24117898084E+001, +0.00000000000E+000
+1.13400000000E+009, -7.23158124388E+001, +0.00000000000E+000
+1.13600000000E+009, -7.20037202753E+001, +0.00000000000E+000
+1.13800000000E+009, -7.17896890497E+001, +0.00000000000E+000
+1.14000000000E+009, -7.16978257491E+001, +0.00000000000E+000
+1.14200000000E+009, -7.15834691114E+001, +0.00000000000E+000
+1.14400000000E+009, -7.15978648956E+001, +0.00000000000E+000
+1.14600000000E+009, -7.16013074203E+001, +0.00000000000E+000
+1.14800000000E+009, -7.15149626846E+001, +0.00000000000E+000
+1.15000000000E+009, -7.15233477551E+001, +0.00000000000E+000
+1.15200000000E+009, -7.14991680135E+001, +0.00000000000E+000
+1.15400000000E+009, -7.15205340635E+001, +0.00000000000E+000
+1.15600000000E+009, -7.14881442273E+001, +0.00000000000E+000
+1.15800000000E+009, -7.15582811668E+001, +0.00000000000E+000
+1.16000000000E+009, -7.16279073606E+001, +0.00000000000E+000
+1.16200000000E+009, -7.16729298508E+001, +0.00000000000E+000
+1.16400000000E+009, -7.17229389855E+001, +0.00000000000E+000
+1.16600000000E+009, -7.18135875783E+001, +0.00000000000E+000
+1.16800000000E+009, -7.19282053129E+001, +0.00000000000E+000
+1.17000000000E+009, -7.20264395499E+001, +0.00000000000E+000
+1.17200000000E+009, -7.21621417353E+001, +0.00000000000E+000
+1.17400000000E+009, -7.23103320409E+001, +0.00000000000E+000
+1.17600000000E+009, -7.24377437557E+001, +0.00000000000E+000
+1.17800000000E+009, -7.26620594638E+001, +0.00000000000E+000
+1.18000000000E+009, -7.29131033528E+001, +0.00000000000E+000
+1.18200000000E+009, -7.31910212145E+001, +0.00000000000E+000
+1.18400000000E+009, -7.34328758192E+001, +0.00000000000E+000
+1.18600000000E+009, -7.37031887439E+001, +0.00000000000E+000
+1.18800000000E+009, -7.39991169268E+001, +0.00000000000E+000
+1.19000000000E+009, -7.42856525258E+001, +0.00000000000E+000
+1.19200000000E+009, -7.46022125183E+001, +0.00000000000E+000
+1.19400000000E+009, -7.48975672323E+001, +0.00000000000E+000
+1.19600000000E+009, -7.51898058066E+001, +0.00000000000E+000
+1.19800000000E+009, -7.55005006303E+001, +0.00000000000E+000
+1.20000000000E+009, -7.58537087896E+001, +0.00000000000E+000
+1.20200000000E+009, -7.62205557641E+001, +0.00000000000E+000
+1.20400000000E+009, -7.65774135830E+001, +0.00000000000E+000
+1.20600000000E+009, -7.69429953369E+001, +0.00000000000E+000
+1.20800000000E+009, -7.72991779752E+001, +0.00000000000E+000
+1.21000000000E+009, -7.76663558344E+001, +0.00000000000E+000
+1.21200000000E+009, -7.80403026528E+001, +0.00000000000E+000
+1.21400000000E+009, -7.84072303518E+001, +0.00000000000E+000
+1.21600000000E+009, -7.88081313491E+001, +0.00000000000E+000
+1.21800000000E+009, -7.92211336776E+001, +0.00000000000E+000
+1.22000000000E+009, -7.96375172595E+001, +0.00000000000E+000
+1.22200000000E+009, -8.00338972087E+001, +0.00000000000E+000
+1.22400000000E+009, -8.04253171528E+001, +0.00000000000E+000
+1.22600000000E+009, -8.08369871174E+001, +0.00000000000E+000
+1.22800000000E+009, -8.12560548795E+001, +0.00000000000E+000
+1.23000000000E+009, -8.16983466617E+001, +0.00000000000E+000
+1.23200000000E+009, -8.21190693644E+001, +0.00000000000E+000
+1.23400000000E+009, -8.25631346801E+001, +0.00000000000E+000
+1.23600000000E+009, -8.29655529873E+001, +0.00000000000E+000
+1.23800000000E+009, -8.34198370045E+001, +0.00000000000E+000
+1.24000000000E+009, -8.38591497233E+001, +0.00000000000E+000
+1.24200000000E+009, -8.43170615539E+001, +0.00000000000E+000
+1.24400000000E+009, -8.47734462538E+001, +0.00000000000E+000
+1.24600000000E+009, -8.52446595165E+001, +0.00000000000E+000
+1.24800000000E+009, -8.57153630337E+001, +0.00000000000E+000
+1.25000000000E+009, -8.61545093664E+001, +0.00000000000E+000
+1.25200000000E+009, -8.66451091438E+001, +0.00000000000E+000
+1.25400000000E+009, -8.71112861550E+001, +0.00000000000E+000
+1.25600000000E+009, -8.75898657949E+001, +0.00000000000E+000
+1.25800000000E+009, -8.80861777744E+001, +0.00000000000E+000
+1.26000000000E+009, -8.86070646020E+001, +0.00000000000E+000
+1.26200000000E+009, -8.90836828046E+001, +0.00000000000E+000
+1.26400000000E+009, -8.95777395025E+001, +0.00000000000E+000
+1.26600000000E+009, -9.00889544855E+001, +0.00000000000E+000
+1.26800000000E+009, -9.05924679648E+001, +0.00000000000E+000
+1.27000000000E+009, -9.11019706834E+001, +0.00000000000E+000
+1.27200000000E+009, -9.16225496441E+001, +0.00000000000E+000
+1.27400000000E+009, -9.21433463504E+001, +0.00000000000E+000
+1.27600000000E+009, -9.26571183287E+001, +0.00000000000E+000
+1.27800000000E+009, -9.31989793908E+001, +0.00000000000E+000
+1.28000000000E+009, -9.37537902780E+001, +0.00000000000E+000
+1.28200000000E+009, -9.43072076896E+001, +0.00000000000E+000
+1.28400000000E+009, -9.48607334871E+001, +0.00000000000E+000
+1.28600000000E+009, -9.54234486322E+001, +0.00000000000E+000
+1.28800000000E+009, -9.59723480219E+001, +0.00000000000E+000
+1.29000000000E+009, -9.65367854378E+001, +0.00000000000E+000
+1.29200000000E+009, -9.71146771734E+001, +0.00000000000E+000
+1.29400000000E+009, -9.77044281560E+001, +0.00000000000E+000
+1.29600000000E+009, -9.83092343378E+001, +0.00000000000E+000
+1.29800000000E+009, -9.89198190437E+001, +0.00000000000E+000
+1.30000000000E+009, -9.95320042214E+001, +0.00000000000E+000
+1.30200000000E+009, -1.00142960841E+002, +0.00000000000E+000
+1.30400000000E+009, -1.00764614258E+002, +0.00000000000E+000
+1.30600000000E+009, -1.01395246032E+002, +0.00000000000E+000
+1.30800000000E+009, -1.02011849421E+002, +0.00000000000E+000
+1.31000000000E+009, -1.02669940176E+002, +0.00000000000E+000
+1.31200000000E+009, -1.03308732276E+002, +0.00000000000E+000
+1.31400000000E+009, -1.03959940177E+002, +0.00000000000E+000
+1.31600000000E+009, -1.04610875566E+002, +0.00000000000E+000
+1.31800000000E+009, -1.05277412302E+002, +0.00000000000E+000
+1.32000000000E+009, -1.05947443504E+002, +0.00000000000E+000
+1.32200000000E+009, -1.06602952348E+002, +0.00000000000E+000
+1.32400000000E+009, -1.07275984001E+002, +0.00000000000E+000
+1.32600000000E+009, -1.07941384400E+002, +0.00000000000E+000
+1.32800000000E+009, -1.08606586444E+002, +0.00000000000E+000
+1.33000000000E+009, -1.09280543009E+002, +0.00000000000E+000
+1.33200000000E+009, -1.09941238543E+002, +0.00000000000E+000
+1.33400000000E+009, -1.10615615789E+002, +0.00000000000E+000
+1.33600000000E+009, -1.11283097087E+002, +0.00000000000E+000
+1.33800000000E+009, -1.11959511264E+002, +0.00000000000E+000
+1.34000000000E+009, -1.12646358807E+002, +0.00000000000E+000
+1.34200000000E+009, -1.13332219617E+002, +0.00000000000E+000
+1.34400000000E+009, -1.14020941471E+002, +0.00000000000E+000
+1.34600000000E+009, -1.14716563921E+002, +0.00000000000E+000
+1.34800000000E+009, -1.15417772045E+002, +0.00000000000E+000
+1.35000000000E+009, -1.16108368115E+002, +0.00000000000E+000
+1.35200000000E+009, -1.16802257419E+002, +0.00000000000E+000
+1.35400000000E+009, -1.17490970508E+002, +0.00000000000E+000
+1.35600000000E+009, -1.18178959746E+002, +0.00000000000E+000
+1.35800000000E+009, -1.18868678267E+002, +0.00000000000E+000
+1.36000000000E+009, -1.19569886363E+002, +0.00000000000E+000
+1.36200000000E+009, -1.20266433322E+002, +0.00000000000E+000
+1.36400000000E+009, -1.20945743511E+002, +0.00000000000E+000
+1.36600000000E+009, -1.21642700145E+002, +0.00000000000E+000
+1.36800000000E+009, -1.22327938015E+002, +0.00000000000E+000
+1.37000000000E+009, -1.23016162130E+002, +0.00000000000E+000
+1.37200000000E+009, -1.23698177989E+002, +0.00000000000E+000
+1.37400000000E+009, -1.24387056723E+002, +0.00000000000E+000
+1.37600000000E+009, -1.25073595254E+002, +0.00000000000E+000
+1.37800000000E+009, -1.25755776045E+002, +0.00000000000E+000
+1.38000000000E+009, -1.26410922093E+002, +0.00000000000E+000
+1.38200000000E+009, -1.27096721173E+002, +0.00000000000E+000
+1.38400000000E+009, -1.27766939052E+002, +0.00000000000E+000
+1.38600000000E+009, -1.28445835599E+002, +0.00000000000E+000
+1.38800000000E+009, -1.29134969062E+002, +0.00000000000E+000
+1.39000000000E+009, -1.29813229236E+002, +0.00000000000E+000
+1.39200000000E+009, -1.30460319011E+002, +0.00000000000E+000
+1.39400000000E+009, -1.31133102836E+002, +0.00000000000E+000
+1.39600000000E+009, -1.31801986633E+002, +0.00000000000E+000
+1.39800000000E+009, -1.32474993698E+002, +0.00000000000E+000
+1.40000000000E+009, -1.33149689994E+002, +0.00000000000E+000
+1.40200000000E+009, -1.33809768044E+002, +0.00000000000E+000
+1.40400000000E+009, -1.34487472077E+002, +0.00000000000E+000
+1.40600000000E+009, -1.35163406472E+002, +0.00000000000E+000
+1.40800000000E+009, -1.35839901469E+002, +0.00000000000E+000
+1.41000000000E+009, -1.36515817180E+002, +0.00000000000E+000
+1.41200000000E+009, -1.37194449697E+002, +0.00000000000E+000
+1.41400000000E+009, -1.37872615804E+002, +0.00000000000E+000
+1.41600000000E+009, -1.38549841519E+002, +0.00000000000E+000
+1.41800000000E+009, -1.39244426942E+002, +0.00000000000E+000
+1.42000000000E+009, -1.39919686840E+002, +0.00000000000E+000
+1.42200000000E+009, -1.40600729973E+002, +0.00000000000E+000
+1.42400000000E+009, -1.41292729568E+002, +0.00000000000E+000
+1.42600000000E+009, -1.41996719972E+002, +0.00000000000E+000
+1.42800000000E+009, -1.42672802725E+002, +0.00000000000E+000
+1.43000000000E+009, -1.43372957705E+002, +0.00000000000E+000
+1.43200000000E+009, -1.44089383234E+002, +0.00000000000E+000
+1.43400000000E+009, -1.44783028847E+002, +0.00000000000E+000
+1.43600000000E+009, -1.45469401932E+002, +0.00000000000E+000
+1.43800000000E+009, -1.46173705423E+002, +0.00000000000E+000
+1.44000000000E+009, -1.46874324434E+002, +0.00000000000E+000
+1.44200000000E+009, -1.47560709251E+002, +0.00000000000E+000
+1.44400000000E+009, -1.48258428026E+002, +0.00000000000E+000
+1.44600000000E+009, -1.48965981275E+002, +0.00000000000E+000
+1.44800000000E+009, -1.49660772195E+002, +0.00000000000E+000
+1.45000000000E+009, -1.50375806307E+002, +0.00000000000E+000
+1.45200000000E+009, -1.51085320715E+002, +0.00000000000E+000
+1.45400000000E+009, -1.51792851347E+002, +0.00000000000E+000
+1.45600000000E+009, -1.52505189467E+002, +0.00000000000E+000
+1.45800000000E+009, -1.53211771186E+002, +0.00000000000E+000
+1.46000000000E+009, -1.53927757194E+002, +0.00000000000E+000
+1.46200000000E+009, -1.54616498022E+002, +0.00000000000E+000
+1.46400000000E+009, -1.55329333800E+002, +0.00000000000E+000
+1.46600000000E+009, -1.56043488200E+002, +0.00000000000E+000
+1.46800000000E+009, -1.56761703342E+002, +0.00000000000E+000
+1.47000000000E+009, -1.57461841878E+002, +0.00000000000E+000
+1.47200000000E+009, -1.58163668168E+002, +0.00000000000E+000
+1.47400000000E+009, -1.58872346175E+002, +0.00000000000E+000
+1.47600000000E+009, -1.59566380468E+002, +0.00000000000E+000
+1.47800000000E+009, -1.60276027208E+002, +0.00000000000E+000
+1.48000000000E+009, -1.60988564297E+002, +0.00000000000E+000
+1.48200000000E+009, -1.61690502121E+002, +0.00000000000E+000
+1.48400000000E+009, -1.62422821538E+002, +0.00000000000E+000
+1.48600000000E+009, -1.63124016963E+002, +0.00000000000E+000
+1.48800000000E+009, -1.63830552228E+002, +0.00000000000E+000
+1.49000000000E+009, -1.64541811991E+002, +0.00000000000E+000
+1.49200000000E+009, -1.65254723777E+002, +0.00000000000E+000
+1.49400000000E+009, -1.65978958363E+002, +0.00000000000E+000
+1.49600000000E+009, -1.66683520213E+002, +0.00000000000E+000
+1.49800000000E+009, -1.67405427258E+002, +0.00000000000E+000
+1.50000000000E+009, -1.68125326066E+002, +0.00000000000E+000
+1.50200000000E+009, -1.68835169278E+002, +0.00000000000E+000
+1.50400000000E+009, -1.69551809195E+002, +0.00000000000E+000
+1.50600000000E+009, -1.70283410729E+002, +0.00000000000E+000
+1.50800000000E+009, -1.71017405619E+002, +0.00000000000E+000
+1.51000000000E+009, -1.71762028213E+002, +0.00000000000E+000
+1.51200000000E+009, -1.72482993255E+002, +0.00000000000E+000
+1.51400000000E+009, -1.73221229077E+002, +0.00000000000E+000
+1.51600000000E+009, -1.73958978540E+002, +0.00000000000E+000
+1.51800000000E+009, -1.74706245403E+002, +0.00000000000E+000
+1.52000000000E+009, -1.75439194058E+002, +0.00000000000E+000
+1.52200000000E+009, -1.76190326790E+002, +0.00000000000E+000
+1.52400000000E+009, -1.76939347932E+002, +0.00000000000E+000
+1.52600000000E+009, -1.77706433603E+002, +0.00000000000E+000
+1.52800000000E+009, -1.78467795597E+002, +0.00000000000E+000
+1.53000000000E+009, -1.79226189955E+002, +0.00000000000E+000
+1.53200000000E+009, -1.79998321002E+002, +0.00000000000E+000
+1.53400000000E+009, +1.79238992079E+002, +0.00000000000E+000
+1.53600000000E+009, +1.78443338056E+002, +0.00000000000E+000
+1.53800000000E+009, +1.77668564271E+002, +0.00000000000E+000
+1.54000000000E+009, +1.76889513204E+002, +0.00000000000E+000
+1.54200000000E+009, +1.76086739938E+002, +0.00000000000E+000
+1.54400000000E+009, +1.75301029184E+002, +0.00000000000E+000
+1.54600000000E+009, +1.74504041361E+002, +0.00000000000E+000
+1.54800000000E+009, +1.73707180048E+002, +0.00000000000E+000
+1.55000000000E+009, +1.72910996372E+002, +0.00000000000E+000
+1.55200000000E+009, +1.72089204531E+002, +0.00000000000E+000
+1.55400000000E+009, +1.71294523099E+002, +0.00000000000E+000
+1.55600000000E+009, +1.70464745756E+002, +0.00000000000E+000
+1.55800000000E+009, +1.69650926862E+002, +0.00000000000E+000
+1.56000000000E+009, +1.68834480757E+002, +0.00000000000E+000
+1.56200000000E+009, +1.68018593668E+002, +0.00000000000E+000
+1.56400000000E+009, +1.67190365568E+002, +0.00000000000E+000
+1.56600000000E+009, +1.66362283059E+002, +0.00000000000E+000
+1.56800000000E+009, +1.65539780816E+002, +0.00000000000E+000
+1.57000000000E+009, +1.64706524541E+002, +0.00000000000E+000
+1.57200000000E+009, +1.63869254328E+002, +0.00000000000E+000
+1.57400000000E+009, +1.63027624804E+002, +0.00000000000E+000
+1.57600000000E+009, +1.62178567896E+002, +0.00000000000E+000
+1.57800000000E+009, +1.61368688957E+002, +0.00000000000E+000
+1.58000000000E+009, +1.60527779775E+002, +0.00000000000E+000
+1.58200000000E+009, +1.59703114677E+002, +0.00000000000E+000
+1.58400000000E+009, +1.58874145351E+002, +0.00000000000E+000
+1.58600000000E+009, +1.58030603495E+002, +0.00000000000E+000
+1.58800000000E+009, +1.57203209226E+002, +0.00000000000E+000
+1.59000000000E+009, +1.56383170069E+002, +0.00000000000E+000
+1.59200000000E+009, +1.55553713642E+002, +0.00000000000E+000
+1.59400000000E+009, +1.54728712351E+002, +0.00000000000E+000
+1.59600000000E+009, +1.53916523472E+002, +0.00000000000E+000
+1.59800000000E+009, +1.53099641481E+002, +0.00000000000E+000
+1.60000000000E+009, +1.52292495985E+002, +0.00000000000E+000
+1.60200000000E+009, +1.51485906699E+002, +0.00000000000E+000
+1.60400000000E+009, +1.50686333405E+002, +0.00000000000E+000
+1.60600000000E+009, +1.49891428226E+002, +0.00000000000E+000
+1.60800000000E+009, +1.49102914348E+002, +0.00000000000E+000
+1.61000000000E+009, +1.48311040415E+002, +0.00000000000E+000
+1.61200000000E+009, +1.47535905794E+002, +0.00000000000E+000
+1.61400000000E+009, +1.46761938624E+002, +0.00000000000E+000
+1.61600000000E+009, +1.45986906440E+002, +0.00000000000E+000
+1.61800000000E+009, +1.45231897727E+002, +0.00000000000E+000
+1.62000000000E+009, +1.44471596688E+002, +0.00000000000E+000
+1.62200000000E+009, +1.43699034204E+002, +0.00000000000E+000
+1.62400000000E+009, +1.42957000767E+002, +0.00000000000E+000
+1.62600000000E+009, +1.42231664840E+002, +0.00000000000E+000
+1.62800000000E+009, +1.41489452959E+002, +0.00000000000E+000
+1.63000000000E+009, +1.40761523026E+002, +0.00000000000E+000
