"# Channel 1"
"# Trace 1"
Frequency, Formatted Data, Formatted Data
+1.00000000000E+009, -2.96508817282E+001, +0.00000000000E+000
+1.00200000000E+009, -3.01785079083E+001, +0.00000000000E+000
+1.00400000000E+009, -3.07159236699E+001, +0.00000000000E+000
+1.00600000000E+009, -3.12737276115E+001, +0.00000000000E+000
+1.00800000000E+009, -3.18469569403E+001, +0.00000000000E+000
+1.01000000000E+009, -3.24435415024E+001, +0.00000000000E+000
+1.01200000000E+009, -3.30481596583E+001, +0.00000000000E+000
+1.01400000000E+009, -3.36643031267E+001, +0.00000000000E+000
+1.01600000000E+009, -3.43096974169E+001, +0.00000000000E+000
+1.01800000000E+009, -3.49804517977E+001, +0.00000000000E+000
+1.02000000000E+009, -3.56740803866E+001, +0.00000000000E+000
+1.02200000000E+009, -3.63899743557E+001, +0.00000000000E+000
+1.02400000000E+009, -3.71290949297E+001, +0.00000000000E+000
+1.02600000000E+009, -3.78735030875E+001, +0.00000000000E+000
+1.02800000000E+009, -3.86466527333E+001, +0.00000000000E+000
+1.03000000000E+009, -3.94496722671E+001, +0.00000000000E+000
+1.03200000000E+009, -4.02721084250E+001, +0.00000000000E+000
+1.03400000000E+009, -4.10962225691E+001, +0.00000000000E+000
+1.03600000000E+009, -4.19371043640E+001, +0.00000000000E+000
+1.03800000000E+009, -4.27661788212E+001, +0.00000000000E+000
+1.04000000000E+009, -4.35875917944E+001, +0.00000000000E+000
+1.04200000000E+009, -4.44121642443E+001, +0.00000000000E+000
+1.04400000000E+009, -4.51290338503E+001, +0.00000000000E+000
+1.04600000000E+009, -4.57845279839E+001, +0.00000000000E+000
+1.04800000000E+009, -4.63323204819E+001, +0.00000000000E+000
+1.05000000000E+009, -4.67845168903E+001, +0.00000000000E+000
+1.05200000000E+009, -4.71082498870E+001, +0.00000000000E+000
+1.05400000000E+009, -4.72740774361E+001, +0.00000000000E+000
+1.05600000000E+009, -4.73024230272E+001, +0.00000000000E+000
+1.05800000000E+009, -4.73051989507E+001, +0.00000000000E+000
+1.06000000000E+009, -4.72200371543E+001, +0.00000000000E+000
+1.06200000000E+009, -4.70914850713E+001, +0.00000000000E+000
+1.06400000000E+009, -4.69672150590E+001, +0.00000000000E+000
+1.06600000000E+009, -4.68739810957E+001, +0.00000000000E+000
+1.06800000000E+009, -4.68037764571E+001, +0.00000000000E+000
+1.07000000000E+009, -4.67084373418E+001, +0.00000000000E+000
+1.07200000000E+009, -4.66009440325E+001, +0.00000000000E+000
+1.07400000000E+009, -4.66035050277E+001, +0.00000000000E+000
+1.07600000000E+009, -4.65906409540E+001, +0.00000000000E+000
+1.07800000000E+009, -4.66560393481E+001, +0.00000000000E+000
+1.08000000000E+009, -4.67191521343E+001, +0.00000000000E+000
+1.08200000000E+009, -4.68594095001E+001, +0.00000000000E+000
+1.08400000000E+009, -4.71054472214E+001, +0.00000000000E+000
+1.08600000000E+009, -4.73725317520E+001, +0.00000000000E+000
+1.08800000000E+009, -4.77147494357E+001, +0.00000000000E+000
+1.09000000000E+009, -4.81486264937E+001, +0.00000000000E+000
+1.09200000000E+009, -4.87302111382E+001, +0.00000000000E+000
+1.09400000000E+009, -4.93608868452E+001, +0.00000000000E+000
+1.09600000000E+009, -5.01496450914E+001, +0.00000000000E+000
+1.09800000000E+009, -5.10947224163E+001, +0.00000000000E+000
+1.10000000000E+009, -5.23174750769E+001, +0.00000000000E+000
+1.10200000000E+009, -5.36899763189E+001, +0.00000000000E+000
+1.10400000000E+009, -5.52046420912E+001, +0.00000000000E+000
+1.10600000000E+009, -5.67898642765E+001, +0.00000000000E+000
+1.10800000000E+009, -5.76909124840E+001, +0.00000000000E+000
+1.11000000000E+009, -5.72454822103E+001, +0.00000000000E+000
+1.11200000000E+009, -5.58560588539E+001, +0.00000000000E+000
+1.11400000000E+009, -5.39895212311E+001, +0.00000000000E+000
+1.11600000000E+009, -5.21003364892E+001, +0.00000000000E+000
+1.11800000000E+009, -5.03199608946E+001, +0.00000000000E+000
+1.12000000000E+009, -4.87340637039E+001, +0.00000000000E+000
+1.12200000000E+009, -4.73517413918E+001, +0.00000000000E+000
+1.12400000000E+009, -4.61324033958E+001, +0.00000000000E+000
+1.12600000000E+009, -4.50378899210E+001, +0.00000000000E+000
+1.12800000000E+009, -4.33263310818E+001, +0.00000000000E+000
+1.13000000000E+009, -4.24935654481E+001, +0.00000000000E+000
+1.13200000000E+009, -4.16735118058E+001, +0.00000000000E+000
+1.13400000000E+009, -4.09471864028E+001, +0.00000000000E+000
+1.13600000000E+009, -4.02369569845E+001, +0.00000000000E+000
+1.13800000000E+009, -3.95537776746E+001, +0.00000000000E+000
+1.14000000000E+009, -3.88997145510E+001, +0.00000000000E+000
+1.14200000000E+009, -3.82693703683E+001, +0.00000000000E+000
+1.14400000000E+009, -3.76747306712E+001, +0.00000000000E+000
+1.14600000000E+009, -3.71043038495E+001, +0.00000000000E+000
+1.14800000000E+009, -3.65541922976E+001, +0.00000000000E+000
+1.15000000000E+009, -3.60208114069E+001, +0.00000000000E+000
+1.15200000000E+009, -3.55075067565E+001, +0.00000000000E+000
+1.15400000000E+009, -3.50154002419E+001, +0.00000000000E+000
+1.15600000000E+009, -3.45309209858E+001, +0.00000000000E+000
+1.15800000000E+009, -3.40623264253E+001, +0.00000000000E+000
+1.16000000000E+009, -3.36043393352E+001, +0.00000000000E+000
+1.16200000000E+009, -3.31534730759E+001, +0.00000000000E+000
+1.16400000000E+009, -3.27171673385E+001, +0.00000000000E+000
+1.16600000000E+009, -3.22917725236E+001, +0.00000000000E+000
+1.16800000000E+009, -3.18769680459E+001, +0.00000000000E+000
+1.17000000000E+009, -3.14716209317E+001, +0.00000000000E+000
+1.17200000000E+009, -3.10678693005E+001, +0.00000000000E+000
+1.17400000000E+009, -3.06785809575E+001, +0.00000000000E+000
+1.17600000000E+009, -3.02840863503E+001, +0.00000000000E+000
+1.17800000000E+009, -2.99026692639E+001, +0.00000000000E+000
+1.18000000000E+009, -2.95365556545E+001, +0.00000000000E+000
+1.18200000000E+009, -2.91797426879E+001, +0.00000000000E+000
+1.18400000000E+009, -2.88330656217E+001, +0.00000000000E+000
+1.18600000000E+009, -2.84901974040E+001, +0.00000000000E+000
+1.18800000000E+009, -2.81545166864E+001, +0.00000000000E+000
+1.19000000000E+009, -2.78222045147E+001, +0.00000000000E+000
+1.19200000000E+009, -2.74950264582E+001, +0.00000000000E+000
+1.19400000000E+009, -2.71749426120E+001, +0.00000000000E+000
+1.19600000000E+009, -2.68591895512E+001, +0.00000000000E+000
+1.19800000000E+009, -2.65513098980E+001, +0.00000000000E+000
+1.20000000000E+009, -2.62504734377E+001, +0.00000000000E+000
+1.20200000000E+009, -2.59556987819E+001, +0.00000000000E+000
+1.20400000000E+009, -2.56651663898E+001, +0.00000000000E+000
+1.20600000000E+009, -2.53762487412E+001, +0.00000000000E+000
+1.20800000000E+009, -2.50991659376E+001, +0.00000000000E+000
+1.21000000000E+009, -2.48215351959E+001, +0.00000000000E+000
+1.21200000000E+009, -2.45474225728E+001, +0.00000000000E+000
+1.21400000000E+009, -2.42780178612E+001, +0.00000000000E+000
+1.21600000000E+009, -2.40081813019E+001, +0.00000000000E+000
+1.21800000000E+009, -2.37451405440E+001, +0.00000000000E+000
+1.22000000000E+009, -2.34878192987E+001, +0.00000000000E+000
+1.22200000000E+009, -2.32333643567E+001, +0.00000000000E+000
+1.22400000000E+009, -2.29775931692E+001, +0.00000000000E+000
+1.22600000000E+009, -2.27270567245E+001, +0.00000000000E+000
+1.22800000000E+009, -2.24818645633E+001, +0.00000000000E+000
+1.23000000000E+009, -2.22391145255E+001, +0.00000000000E+000
+1.23200000000E+009, -2.19991681952E+001, +0.00000000000E+000
+1.23400000000E+009, -2.17632762576E+001, +0.00000000000E+000
+1.23600000000E+009, -2.15317306555E+001, +0.00000000000E+000
+1.23800000000E+009, -2.13028884225E+001, +0.00000000000E+000
+1.24000000000E+009, -2.10775885465E+001, +0.00000000000E+000
+1.24200000000E+009, -2.08565102006E+001, +0.00000000000E+000
+1.24400000000E+009, -2.06378389067E+001, +0.00000000000E+000
+1.24600000000E+009, -2.04212619785E+001, +0.00000000000E+000
+1.24800000000E+009, -2.02110155950E+001, +0.00000000000E+000
+1.25000000000E+009, -1.99989264418E+001, +0.00000000000E+000
+1.25200000000E+009, -1.97899507602E+001, +0.00000000000E+000
+1.25400000000E+009, -1.95838136253E+001, +0.00000000000E+000
+1.25600000000E+009, -1.93824961676E+001, +0.00000000000E+000
+1.25800000000E+009, -1.91812555367E+001, +0.00000000000E+000
+1.26000000000E+009, -1.89858859212E+001, +0.00000000000E+000
+1.26200000000E+009, -1.87901687951E+001, +0.00000000000E+000
+1.26400000000E+009, -1.85991273509E+001, +0.00000000000E+000
+1.26600000000E+009, -1.84088968742E+001, +0.00000000000E+000
+1.26800000000E+009, -1.82200953538E+001, +0.00000000000E+000
+1.27000000000E+009, -1.80312014585E+001, +0.00000000000E+000
+1.27200000000E+009, -1.78460239455E+001, +0.00000000000E+000
+1.27400000000E+009, -1.76619223041E+001, +0.00000000000E+000
+1.27600000000E+009, -1.74809979918E+001, +0.00000000000E+000
+1.27800000000E+009, -1.73025466242E+001, +0.00000000000E+000
+1.28000000000E+009, -1.71268991672E+001, +0.00000000000E+000
+1.28200000000E+009, -1.69513203796E+001, +0.00000000000E+000
+1.28400000000E+009, -1.67766355514E+001, +0.00000000000E+000
+1.28600000000E+009, -1.66045303239E+001, +0.00000000000E+000
+1.28800000000E+009, -1.64352476358E+001, +0.00000000000E+000
+1.29000000000E+009, -1.62657098811E+001, +0.00000000000E+000
+1.29200000000E+009, -1.60994392400E+001, +0.00000000000E+000
+1.29400000000E+009, -1.59359437108E+001, +0.00000000000E+000
+1.29600000000E+009, -1.57733813958E+001, +0.00000000000E+000
+1.29800000000E+009, -1.56072356251E+001, +0.00000000000E+000
+1.30000000000E+009, -1.54449601621E+001, +0.00000000000E+000
+1.30200000000E+009, -1.52862534881E+001, +0.00000000000E+000
+1.30400000000E+009, -1.51272713652E+001, +0.00000000000E+000
+1.30600000000E+009, -1.49726400521E+001, +0.00000000000E+000
+1.30800000000E+009, -1.48186528862E+001, +0.00000000000E+000
+1.31000000000E+009, -1.46644364909E+001, +0.00000000000E+000
+1.31200000000E+009, -1.45108778389E+001, +0.00000000000E+000
+1.31400000000E+009, -1.43584601051E+001, +0.00000000000E+000
+1.31600000000E+009, -1.42047017996E+001, +0.00000000000E+000
+1.31800000000E+009, -1.40568347403E+001, +0.00000000000E+000
+1.32000000000E+009, -1.39087247198E+001, +0.00000000000E+000
+1.32200000000E+009, -1.37606606025E+001, +0.00000000000E+000
+1.32400000000E+009, -1.36152214805E+001, +0.00000000000E+000
+1.32600000000E+009, -1.34711235804E+001, +0.00000000000E+000
+1.32800000000E+009, -1.33297519801E+001, +0.00000000000E+000
+1.33000000000E+009, -1.31850097160E+001, +0.00000000000E+000
+1.33200000000E+009, -1.30421905303E+001, +0.00000000000E+000
+1.33400000000E+009, -1.28979506443E+001, +0.00000000000E+000
+1.33600000000E+009, -1.27580047905E+001, +0.00000000000E+000
+1.33800000000E+009, -1.26184067835E+001, +0.00000000000E+000
+1.34000000000E+009, -1.24770670661E+001, +0.00000000000E+000
+1.34200000000E+009, -1.23370176902E+001, +0.00000000000E+000
+1.34400000000E+009, -1.22016686701E+001, +0.00000000000E+000
+1.34600000000E+009, -1.20670050025E+001, +0.00000000000E+000
+1.34800000000E+009, -1.19322572923E+001, +0.00000000000E+000
+1.35000000000E+009, -1.17982856572E+001, +0.00000000000E+000
+1.35200000000E+009, -1.16688166809E+001, +0.00000000000E+000
+1.35400000000E+009, -1.15381497836E+001, +0.00000000000E+000
+1.35600000000E+009, -1.14100183801E+001, +0.00000000000E+000
+1.35800000000E+009, -1.12840878849E+001, +0.00000000000E+000
+1.36000000000E+009, -1.11564050595E+001, +0.00000000000E+000
+1.36200000000E+009, -1.10331335813E+001, +0.00000000000E+000
+1.36400000000E+009, -1.09108576188E+001, +0.00000000000E+000
+1.36600000000E+009, -1.07917248388E+001, +0.00000000000E+000
+1.36800000000E+009, -1.06704848999E+001, +0.00000000000E+000
+1.37000000000E+009, -1.05522026916E+001, +0.00000000000E+000
+1.37200000000E+009, -1.04369543083E+001, +0.00000000000E+000
+1.37400000000E+009, -1.03235526736E+001, +0.00000000000E+000
+1.37600000000E+009, -1.02094651294E+001, +0.00000000000E+000
+1.37800000000E+009, -1.00977025724E+001, +0.00000000000E+000
+1.38000000000E+009, -9.98802429265E+000, +0.00000000000E+000
+1.38200000000E+009, -9.87753342832E+000, +0.00000000000E+000
+1.38400000000E+009, -9.77086715728E+000, +0.00000000000E+000
+1.38600000000E+009, -9.66586195504E+000, +0.00000000000E+000
+1.38800000000E+009, -9.56269997430E+000, +0.00000000000E+000
+1.39000000000E+009, -9.46076820122E+000, +0.00000000000E+000
+1.39200000000E+009, -9.35964651904E+000, +0.00000000000E+000
+1.39400000000E+009, -9.26099798073E+000, +0.00000000000E+000
+1.39600000000E+009, -9.16188772586E+000, +0.00000000000E+000
+1.39800000000E+009, -9.06505791021E+000, +0.00000000000E+000
+1.40000000000E+009, -8.96806058028E+000, +0.00000000000E+000
+1.40200000000E+009, -8.87493907323E+000, +0.00000000000E+000
+1.40400000000E+009, -8.77988762530E+000, +0.00000000000E+000
+1.40600000000E+009, -8.68827661893E+000, +0.00000000000E+000
+1.40800000000E+009, -8.59745040111E+000, +0.00000000000E+000
+1.41000000000E+009, -8.50578102140E+000, +0.00000000000E+000
+1.41200000000E+009, -8.41746757125E+000, +0.00000000000E+000
+1.41400000000E+009, -8.32992749069E+000, +0.00000000000E+000
+1.41600000000E+009, -8.24286645882E+000, +0.00000000000E+000
+1.41800000000E+009, -8.15199216516E+000, +0.00000000000E+000
+1.42000000000E+009, -8.06333020693E+000, +0.00000000000E+000
+1.42200000000E+009, -7.97875460426E+000, +0.00000000000E+000
+1.42400000000E+009, -7.88880331588E+000, +0.00000000000E+000
+1.42600000000E+009, -7.80343956368E+000, +0.00000000000E+000
+1.42800000000E+009, -7.71615617076E+000, +0.00000000000E+000
+1.43000000000E+009, -7.62898444469E+000, +0.00000000000E+000
+1.43200000000E+009, -7.54335474693E+000, +0.00000000000E+000
+1.43400000000E+009, -7.45578839897E+000, +0.00000000000E+000
+1.43600000000E+009, -7.37027437528E+000, +0.00000000000E+000
+1.43800000000E+009, -7.28502395457E+000, +0.00000000000E+000
+1.44000000000E+009, -7.19784740380E+000, +0.00000000000E+000
+1.44200000000E+009, -7.11007069137E+000, +0.00000000000E+000
+1.44400000000E+009, -7.02438992666E+000, +0.00000000000E+000
+1.44600000000E+009, -6.93884307932E+000, +0.00000000000E+000
+1.44800000000E+009, -6.85261873384E+000, +0.00000000000E+000
+1.45000000000E+009, -6.76528681222E+000, +0.00000000000E+000
+1.45200000000E+009, -6.68241087417E+000, +0.00000000000E+000
+1.45400000000E+009, -6.59721339767E+000, +0.00000000000E+000
+1.45600000000E+009, -6.51216200852E+000, +0.00000000000E+000
+1.45800000000E+009, -6.42799821799E+000, +0.00000000000E+000
+1.46000000000E+009, -6.34210707274E+000, +0.00000000000E+000
+1.46200000000E+009, -6.25663297218E+000, +0.00000000000E+000
+1.46400000000E+009, -6.17272869661E+000, +0.00000000000E+000
+1.46600000000E+009, -6.09028231457E+000, +0.00000000000E+000
+1.46800000000E+009, -6.00580834366E+000, +0.00000000000E+000
+1.47000000000E+009, -5.92160312295E+000, +0.00000000000E+000
+1.47200000000E+009, -5.83822222757E+000, +0.00000000000E+000
+1.47400000000E+009, -5.75660941023E+000, +0.00000000000E+000
+1.47600000000E+009, -5.67541528249E+000, +0.00000000000E+000
+1.47800000000E+009, -5.59398490790E+000, +0.00000000000E+000
+1.48000000000E+009, -5.51267291370E+000, +0.00000000000E+000
+1.48200000000E+009, -5.43269169742E+000, +0.00000000000E+000
+1.48400000000E+009, -5.35316139446E+000, +0.00000000000E+000
+1.48600000000E+009, -5.27437035116E+000, +0.00000000000E+000
+1.48800000000E+009, -5.19549318832E+000, +0.00000000000E+000
+1.49000000000E+009, -5.11812312567E+000, +0.00000000000E+000
+1.49200000000E+009, -5.03902942522E+000, +0.00000000000E+000
+1.49400000000E+009, -4.96355695094E+000, +0.00000000000E+000
+1.49600000000E+009, -4.89074995405E+000, +0.00000000000E+000
+1.49800000000E+009, -4.81608535777E+000, +0.00000000000E+000
+1.50000000000E+009, -4.74418166439E+000, +0.00000000000E+000
+1.50200000000E+009, -4.67214227487E+000, +0.00000000000E+000
+1.50400000000E+009, -4.59891262854E+000, +0.00000000000E+000
+1.50600000000E+009, -4.52819416818E+000, +0.00000000000E+000
+1.50800000000E+009, -4.45983980214E+000, +0.00000000000E+000
+1.51000000000E+009, -4.39125405166E+000, +0.00000000000E+000
+1.51200000000E+009, -4.32316523620E+000, +0.00000000000E+000
+1.51400000000E+009, -4.25315473435E+000, +0.00000000000E+000
+1.51600000000E+009, -4.18785240573E+000, +0.00000000000E+000
+1.51800000000E+009, -4.12144008100E+000, +0.00000000000E+000
+1.52000000000E+009, -4.05820600049E+000, +0.00000000000E+000
+1.52200000000E+009, -3.99355760555E+000, +0.00000000000E+000
+1.52400000000E+009, -3.93011343003E+000, +0.00000000000E+000
+1.52600000000E+009, -3.86719597918E+000, +0.00000000000E+000
+1.52800000000E+009, -3.80689871338E+000, +0.00000000000E+000
+1.53000000000E+009, -3.74884268934E+000, +0.00000000000E+000
+1.53200000000E+009, -3.68773573668E+000, +0.00000000000E+000
+1.53400000000E+009, -3.62569908618E+000, +0.00000000000E+000
+1.53600000000E+009, -3.56897529316E+000, +0.00000000000E+000
+1.53800000000E+009, -3.50835520326E+000, +0.00000000000E+000
+1.54000000000E+009, -3.45289452227E+000, +0.00000000000E+000
+1.54200000000E+009, -3.39734382729E+000, +0.00000000000E+000
+1.54400000000E+009, -3.34217873190E+000, +0.00000000000E+000
+1.54600000000E+009, -3.28876596005E+000, +0.00000000000E+000
+1.54800000000E+009, -3.23225860271E+000, +0.00000000000E+000
+1.55000000000E+009, -3.18046086334E+000, +0.00000000000E+000
+1.55200000000E+009, -3.12896711679E+000, +0.00000000000E+000
+1.55400000000E+009, -3.07704815164E+000, +0.00000000000E+000
+1.55600000000E+009, -3.02470699097E+000, +0.00000000000E+000
+1.55800000000E+009, -2.97533898783E+000, +0.00000000000E+000
+1.56000000000E+009, -2.92389106212E+000, +0.00000000000E+000
+1.56200000000E+009, -2.87485203785E+000, +0.00000000000E+000
+1.56400000000E+009, -2.82944367741E+000, +0.00000000000E+000
+1.56600000000E+009, -2.78049441302E+000, +0.00000000000E+000
+1.56800000000E+009, -2.73359132033E+000, +0.00000000000E+000
+1.57000000000E+009, -2.68557230623E+000, +0.00000000000E+000
+1.57200000000E+009, -2.64016405710E+000, +0.00000000000E+000
+1.57400000000E+009, -2.59500648934E+000, +0.00000000000E+000
+1.57600000000E+009, -2.55045850102E+000, +0.00000000000E+000
+1.57800000000E+009, -2.50727869565E+000, +0.00000000000E+000
+1.58000000000E+009, -2.46641230328E+000, +0.00000000000E+000
+1.58200000000E+009, -2.42681441306E+000, +0.00000000000E+000
+1.58400000000E+009, -2.38409456910E+000, +0.00000000000E+000
+1.58600000000E+009, -2.34469734746E+000, +0.00000000000E+000
+1.58800000000E+009, -2.30565002858E+000, +0.00000000000E+000
+1.59000000000E+009, -2.26622747885E+000, +0.00000000000E+000
+1.59200000000E+009, -2.22763106705E+000, +0.00000000000E+000
+1.59400000000E+009, -2.19218274971E+000, +0.00000000000E+000
+1.59600000000E+009, -2.15600424595E+000, +0.00000000000E+000
+1.59800000000E+009, -2.12243526216E+000, +0.00000000000E+000
+1.60000000000E+009, -2.08734773180E+000, +0.00000000000E+000
+1.60200000000E+009, -2.05396167802E+000, +0.00000000000E+000
+1.60400000000E+009, -2.02268573389E+000, +0.00000000000E+000
+1.60600000000E+009, -1.99101184526E+000, +0.00000000000E+000
+1.60800000000E+009, -1.96299334078E+000, +0.00000000000E+000
+1.61000000000E+009, -1.93363550021E+000, +0.00000000000E+000
+1.61200000000E+009, -1.90396511725E+000, +0.00000000000E+000
+1.61400000000E+009, -1.87684773128E+000, +0.00000000000E+000
+1.61600000000E+009, -1.84918473077E+000, +0.00000000000E+000
+1.61800000000E+009, -1.82286603983E+000, +0.00000000000E+000
+1.62000000000E+009, -1.80136966501E+000, +0.00000000000E+000
+1.62200000000E+009, -1.77728036474E+000, +0.00000000000E+000
+1.62400000000E+009, -1.75625823918E+000, +0.00000000000E+000
+1.62600000000E+009, -1.73389414808E+000, +0.00000000000E+000
+1.62800000000E+009, -1.71456180191E+000, +0.00000000000E+000
+1.63000000000E+009, -1.69307451499E+000, +0.00000000000E+000
